#Acq. time (s)=	15
#Accumulations=	2
#Range (cm-¹)=	10...600
#Windows=	1
#Auto scanning=	Off
#Autofocus=	Off
#Macrospot=	Off
#AutoExposure=	Off
#Spike filter=	Multiple accum.
#Delay time (s)=	0
#Binning=	1
#Readout mode=	Signal
#DeNoise=	Off
#ICS correction=	Off
#Dark correction=	Off
#Inst. Process=	Off
#Detector Gain=	Best Dynamic Range
#Detector ADC=	45 kHz       
#Detector temperature (°C)=	-60.1
#Instrument=	LabRAM Soleil
#Detector=	Syncerity
#Objective=	100x BD
#Grating=	1800 (500nm)
#ND Filter=	10% (6.0mW)
#Laser=	532nm_Edge
#Hole (µm)=	50 
#Laser mode=	Low frequency
#E-Cal_Neon=	0
#StageXY=	QScan
#StageZ=	Marzhauser
#X (µm)=	-1006.3
#Y (µm)=	2788.45
#Z (µm)=	0
#Spectral res.(cm-¹)=	2.7
#Full time(s)=	36
#AC=	Calibrated 2026-06-13 10:52
#Project=	Raman_Soleil-MBE2-260612C-EW
#Sample=	
#Site=	
#Title=	_10_59_40_2026_06_13_2_15 s_532nm_Edge_1800 (500nm)_100x BD_50 µm_10% (6_0mW)_
#Remark=	
#Date=	13.06.2026 10:59
#Acquired=	13.06.2026 10:59:58
#AxisType[0]=Intens
#AxisUnit[0]=Cnt
#AxisType[1]=Spectr
#AxisUnit[1]=1/cm
11.7768	246
13.0146	250
14.25	190
15.4853	132
16.7205	138
17.9554	134
19.1902	128
20.4249	166
21.6593	198
22.8937	314
24.1278	420
25.3596	536
26.5935	602
27.8271	668
29.0606	836
30.294	1120
31.525	1614
32.758	2236
33.9909	2156
35.2214	1186
36.454	590
37.6863	450
38.9164	398
40.1485	402
41.3782	420
42.6099	432
43.8393	442
45.0707	506
46.2998	500
47.5288	470
48.7597	500
49.9883	496
51.2167	494
52.4472	572
53.6753	614
54.9033	652
56.1311	692
57.3587	712
58.5883	742
59.8157	838
61.0428	930
62.2698	1002
63.4967	1066
64.7233	1146
65.9499	1284
67.1762	1480
68.4024	1688
69.6263	2054
70.8522	2460
72.0779	2458
73.3035	1728
74.5289	1082
75.752	862
76.977	752
78.2019	742
79.4267	714
80.6491	692
81.8736	738
83.0957	766
84.3198	816
85.5416	782
86.7654	812
87.9869	860
89.2104	902
90.4316	954
91.6547	1046
92.8756	1078
94.0963	1130
95.319	1210
96.5394	1270
97.7596	1282
98.9796	1284
100.202	1358
101.421	1358
102.641	1276
103.86	1248
105.08	1176
106.299	1158
107.518	1134
108.737	1088
109.955	1066
111.174	1010
112.392	1020
113.61	1056
114.828	950
116.046	1004
117.261	1028
118.479	960
119.696	1020
120.914	954
122.128	964
123.345	952
124.562	926
125.777	888
126.993	834
128.207	816
129.423	772
130.637	668
131.853	652
133.066	570
134.282	506
135.495	506
136.708	460
137.923	428
139.136	424
140.348	394
141.563	374
142.775	364
143.987	326
145.199	332
146.411	312
147.622	332
148.834	352
150.045	360
151.256	408
152.467	436
153.678	508
154.888	548
156.099	502
157.309	470
158.519	410
159.73	372
160.939	306
162.147	328
163.357	288
164.566	278
165.773	276
166.982	272
168.191	260
169.398	234
170.606	234
171.813	226
173.021	234
174.227	246
175.435	228
176.641	228
177.848	226
179.054	234
180.259	254
181.466	242
182.671	246
183.876	244
185.081	220
186.285	246
187.491	252
188.696	222
189.9	248
191.103	258
192.307	238
193.511	234
194.714	202
195.917	218
197.12	196
198.323	210
199.526	196
200.729	200
201.929	190
203.131	190
204.333	182
205.535	202
206.735	192
207.937	176
209.138	166
210.337	176
211.539	166
212.738	166
213.938	160
215.137	164
216.338	168
217.536	158
218.736	166
219.934	156
221.132	162
222.332	152
223.529	148
224.727	162
225.926	140
227.123	146
228.32	150
229.517	134
230.714	156
231.91	140
233.106	138
234.302	150
235.498	160
236.694	128
237.89	140
239.086	126
240.281	134
241.476	138
242.671	142
243.866	124
245.059	132
246.253	136
247.448	118
248.64	128
249.834	132
251.028	142
252.22	150
253.414	138
254.605	126
255.799	134
256.99	124
258.183	122
259.374	110
260.566	120
261.757	124
262.947	122
264.14	124
265.33	110
266.52	122
267.709	112
268.899	120
270.09	110
271.28	118
272.469	116
273.658	128
274.847	112
276.035	118
277.224	108
278.412	112
279.601	110
280.789	98
281.974	110
283.162	104
284.35	102
285.537	114
286.725	104
287.91	106
289.097	104
290.284	102
291.468	108
292.655	108
293.839	104
295.025	96
296.209	100
297.395	96
298.579	100
299.765	98
300.948	104
302.131	92
303.316	100
304.499	96
305.682	106
306.865	94
308.049	100
309.232	96
310.414	96
311.596	94
312.778	96
313.96	88
315.141	94
316.323	86
317.504	86
318.685	90
319.866	88
321.047	90
322.228	92
323.406	94
324.586	96
325.767	90
326.947	94
328.125	78
329.304	90
330.484	84
331.661	84
332.841	86
334.018	80
335.197	82
336.374	78
337.552	90
338.729	84
339.907	74
341.083	90
342.259	88
343.437	76
344.613	86
345.789	80
346.964	82
348.14	76
349.317	84
350.492	84
351.667	80
352.841	80
354.016	80
355.19	74
356.364	84
357.539	84
358.713	76
359.884	80
361.058	72
362.231	80
363.405	76
364.578	70
365.749	74
366.922	74
368.095	76
369.265	80
370.438	78
371.608	72
372.78	76
373.95	78
375.122	66
376.291	76
377.463	78
378.632	76
379.801	78
380.973	82
382.141	80
383.31	74
384.479	66
385.649	66
386.818	64
387.986	70
389.154	70
390.322	62
391.489	74
392.657	62
393.824	72
394.992	72
396.159	56
397.326	70
398.493	60
399.659	72
400.824	66
401.99	70
403.156	68
404.322	72
405.486	66
406.652	62
407.816	66
408.981	66
410.146	68
411.31	68
412.475	66
413.637	62
414.8	68
415.965	70
417.127	84
418.289	90
419.454	98
420.615	86
421.777	70
422.939	70
424.103	62
425.264	64
426.425	62
427.586	66
428.747	62
429.908	66
431.069	64
432.229	72
433.389	64
434.55	68
435.71	60
436.867	54
438.027	64
439.187	64
440.346	64
441.504	62
442.663	64
443.822	62
444.979	58
446.137	54
447.294	66
448.452	62
449.608	64
450.767	66
451.923	64
453.08	58
454.236	50
455.392	64
456.549	64
457.704	68
458.859	56
460.014	62
461.169	56
462.326	62
463.48	58
464.634	58
465.789	56
466.943	60
468.097	52
469.25	56
470.404	56
471.555	58
472.709	58
473.862	48
475.015	54
476.168	60
477.319	58
478.471	58
479.624	66
480.774	54
481.926	56
483.076	56
484.228	58
485.378	60
486.529	64
487.679	52
488.83	62
489.979	64
491.128	56
492.279	60
493.427	56
494.576	56
495.726	46
496.875	54
498.023	40
499.171	56
500.319	56
501.466	60
502.614	50
503.761	64
504.908	58
506.055	48
507.202	58
508.349	58
509.496	56
510.64	54
511.787	54
512.933	52
514.079	54
515.223	54
516.369	62
517.512	56
518.658	58
519.803	50
520.946	54
522.089	52
523.234	52
524.377	50
525.522	56
526.664	58
527.807	62
528.951	48
530.093	56
531.235	56
532.376	56
533.518	52
534.662	52
535.803	48
536.944	54
538.085	52
539.226	60
540.367	60
541.507	50
542.646	56
543.786	58
544.926	56
546.066	50
547.206	48
548.344	46
549.484	52
550.623	58
551.76	50
552.9	58
554.039	60
555.176	50
556.314	52
557.451	52
558.587	54
559.726	56
560.862	58
562	56
563.136	54
564.271	54
565.407	54
566.545	52
567.68	52
568.815	56
569.95	54
571.085	52
572.22	52
573.354	46
574.489	50
575.623	54
576.757	58
577.891	50
579.025	62
580.157	52
581.291	50
582.424	50
583.557	50
584.689	56
585.822	56
586.955	40
588.085	52
589.218	52
590.348	46
591.481	50
592.611	52
593.743	54
594.873	50
596.003	58
597.134	54
598.264	52
599.393	52
